#Parameters = {Screw_L=1.5e-08}
#"Frequency / Hz"	"Z5,5 [SPara1] [Magnitude / Ohm]"
#--------------------------------------------------
9000.0000000000	353.75910849858
9105.1743636694	360.99793579153
9211.5777992026	368.46877168254
9319.2246695829	376.23109828487
9428.1295056402	384.21110366819
9538.3070080123	392.55773017649
9649.7720491291	401.15932429462
9762.5396752205	410.13166797365
9876.6251083470	419.48216653806
9992.0437484550	429.22225677406
10108.811175455	439.27667084072
10226.943151325	449.77229617867
10346.455622239	460.73903109414
10467.364720717	472.19750814589
10589.686767806	484.11761034409
10713.438275280	496.62012325106
10838.635947870	509.69242233839
10965.296685521	523.37300184232
11093.437585671	537.71155620345
11223.075945558	552.79906483986
11354.229264556	568.64453717814
11486.915246540	585.34474890914
11621.151802271	602.83875733706
11756.957051817	621.42683875906
11894.349326996	641.01214685044
12033.347173855	661.71586898117
12173.969355169	683.62537416984
12316.234852976	706.94427477805
12460.162871138	731.68388017334
12605.772837937	758.01025598983
12753.084408692	786.12902296918
12902.117468415	816.06545283460
13052.892134496	848.15010995061
13205.428759417	882.48390298820
13359.747933501	919.38627823374
13515.870487689	958.94944826767
13673.817496353	1001.5871548214
13833.610280143	1047.5421177528
13995.270408862	1097.1075728958
14158.819704376	1150.5921688820
14324.280243567	1208.3827488987
14491.674361305	1270.7628351548
14661.024653467	1337.9607890816
14832.353979986	1410.2075290600
15005.685467937	1487.6031289865
15181.042514661	1569.9221112414
15358.448790919	1656.5131409948
15537.928244089	1746.4272901371
15719.505101402	1837.8286716908
15903.203873206	1927.8660402176
16089.049356280	2013.0379270997
16277.066637180	2088.7037990788
16467.281095621	2149.5585288063
16659.718407909	2191.1077341821
16854.404550405	2209.0267569412
17051.365803030	2201.7284985257
17250.628752810	2169.7573134481
17452.220297474	2116.4206673949
17656.167649075	2046.2004604979
17862.498337667	1964.2302276238
18071.240215024	1875.4923726545
18282.421458394	1784.0495473111
18496.070574308	1692.8432436174
18712.216402423	1604.3569710361
18930.888119420	1519.7968247923
19152.115242938	1440.0027894149
19375.927635560	1365.3342632647
19602.355508846	1295.6800872317
19831.429427409	1231.0540322784
20063.180313040	1171.1867414932
20297.639448886	1115.7406425773
20534.838483666	1064.3907023799
20774.809435952	1016.8168259341
21017.584698484	972.69561852325
21263.197042543	931.72702552842
21511.679622379	893.63507429887
21763.065979684	858.15579258877
22017.390048118	825.06573623479
22274.686157893	794.16417013015
22534.989040403	765.23499447183
22798.333832917	738.11953546946
23064.756083317	712.65885907317
23334.291754901	688.71640456741
23606.977231234	666.17092958974
23882.849321062	644.90658442418
24161.945263280	624.81902961779
24444.302731955	605.81869177108
24729.959841419	587.82089808569
25018.955151407	570.75234404268
25311.327672265	554.54272659051
25607.116870216	539.13018606175
25906.362672687	524.45896126188
26209.105473697	510.47546763277
26515.386139313	497.13466766416
26825.246013163	484.39388109986
27138.726922019	472.21143149782
27455.871181444	460.55319836637
27776.721601499	449.38672674939
28101.321492528	438.67883062101
28429.714671000	428.40470669848
28761.945465425	418.53637129152
29098.058722339	409.05025778502
29438.099812354	399.92543509870
29782.114636288	391.14122812109
30130.149631355	382.67771397054
30482.251777437	374.51762063972
30838.468603426	366.64527768205
31198.848193638	359.04457140498
31563.439194303	351.70288527479
31932.290820134	344.60494903773
32305.452860969	337.73956067858
32682.975688492	331.09543389035
33064.910263032	324.66228812115
33451.308140444	318.42987220748
33842.221479064	312.38760902328
34237.703046755	306.52713630704
34637.806228027	300.84098070521
35042.585031242	295.31953684845
35452.094095908	289.95783734252
35866.388700051	284.74747691306
36285.524767678	279.68235159744
36709.558876329	274.75580739990
37138.548264707	269.96282382130
37572.550840412	265.29716403909
38011.625187754	260.75496429683
38455.830575661	256.32993950522
38905.226965680	252.01753623138
39359.875020073	247.81419709728
39819.836110000	243.71525021796
40285.172323810	239.71694953284
40755.946475418	235.81530128795
41232.222112784	232.00665057441
41714.063526494	228.28820982761
42201.535758435	224.65666576687
42694.704610575	221.10802969045
43193.636653850	217.64018210271
43698.399237143	214.25110078348
44209.060496381	210.93614282469
44725.689363729	207.69477478038
45248.355576896	204.52333969617
45777.129688551	201.41982102764
46312.083075840	198.38281012840
46853.287950030	195.40822283188
47400.817366248	192.49584090581
47954.745233349	189.64362324700
48515.146323888	186.84920951603
49082.096284215	184.11078966819
49655.671644687	181.42681631213
50235.949830000	178.79690432884
50823.009169633	176.21672881489
51416.928908431	173.68718297237
52017.789217295	171.20548099251
52625.671204009	168.77101567256
53240.656924182	166.38290492943
53862.829392331	164.03867394240
54492.272593084	161.73789605454
55129.071492515	159.47923058161
55773.312049616	157.26151208640
56425.081227900	155.08368618275
57084.467007138	152.94471541189
57751.558395236	150.84364315275
58426.445440252	148.77916502360
59109.219242546	146.75057433245
59799.971967083	144.75717187480
60498.796855870	142.79813499454
61205.788240546	140.87207146962
61921.041555111	138.97838691908
62644.653348812	137.11663592002
63376.721299173	135.28585573062
64117.344225184	133.48532974825
64866.622100635	131.71409931504
65624.656067615	129.97183886847
66391.548450164	128.25784845816
67167.402768083	126.57147396246
67952.323750912	124.91183979285
68746.417352063	123.27867128235
69549.790763125	121.67106797986
70362.552428331	120.08944618866
71184.812059199	118.53168995490
72016.680649338	116.99798431768
72858.270489436	115.48813447692
73709.695182412	114.00136655498
74571.069658754	112.53734728330
75442.510192033	111.09489566447
76324.134414596	109.67487185351
77216.061333449	108.27580577467
78118.411346316	106.89772760346
79031.306257896	105.53974689480
79954.869296300	104.20179911728
80889.225129690	102.88392396931
81834.499883105	101.58494616008
82790.821155484	100.30493052377
83758.318036895	99.043516004652
84737.121125956	97.799779516759
85727.362547468	96.574340094403
86729.175970244	95.366373287008
87742.696625160	94.175466555652
88768.061323404	93.001428528818
89805.408474944	91.843359328846
90854.878107213	90.702103428764
91916.611884012	89.576760498651
92990.753124629	88.467472524179
94077.446823187	87.372677765129
95176.839668218	86.293335482889
96289.080062459	85.229046790754
97414.318142891	84.179340839092
98552.705800999	83.144259877444
99704.396703279	82.122560604979
100869.54631198	81.114950006522
102048.31190609	80.120817685641
103240.85260256	79.140634111451
104447.32937780	78.173186671993
105667.90508939	77.218641482553
106902.74449806	76.277135355818
108152.01428996	75.348313177267
109415.88309913	74.430989843060
110694.52153028	73.526867616236
111988.10218179	72.633728762145
113296.79966907	71.752541118945
114620.79064807	70.883033948690
115960.25383915	70.025159390299
117315.37005120	69.177962946116
118686.32220606	68.342108698899
120073.29536321	67.517313187740
121476.47674471	66.702911120253
122896.05576053	65.898992242726
124332.22403410	65.105649885875
125785.17542814	64.322033341312
127255.10607089	63.549135298431
128742.21438252	62.785515693826
130246.70110197	62.031846687024
131768.76931402	61.287790816407
133308.62447670	60.553208377882
134866.47444903	59.828370605297
136442.52951909	59.111909489550
138037.00243238	58.404529495229
139650.10842057	57.706493411360
141282.06523051	57.017387131263
142933.09315368	56.336501119751
144603.41505587	55.664202885235
146293.25640731	55.000413347148
148002.84531306	54.344951290059
149732.41254385	53.697776260324
151482.19156718	53.058437580148
153252.41857888	52.427341161531
155043.33253498	51.804288257140
156855.17518393	51.188321928616
158688.19109929	50.580218220708
160542.62771270	49.978899382258
162418.73534731	49.385636036624
164316.76725155	48.799564514340
166236.97963332	48.220743574521
168179.63169457	47.649118150407
170144.98566631	47.084384850904
172133.30684397	46.526797143412
174144.86362326	45.975125387444
176179.92753636	45.431181497905
178238.77328858	44.893897360646
180321.67879545	44.362871164602
182428.92522024	43.838174484679
184560.79701190	43.320410715130
186717.58194346	42.807909884820
188899.57115089	42.302060139521
191107.05917236	41.803285651278
193340.34398804	41.308964234130
195599.72706033	40.821350494246
197885.51337449	40.338881691342
200198.01147989	39.863106473437
202537.53353159	39.392679113660
204904.39533252	38.928510275304
207298.91637609	38.468953201333
209721.41988934	38.015395242698
212172.23287653	37.566899146445
214651.68616332	37.124327617032
217160.11444141	36.686610197165
219697.85631371	36.255146555621
222265.25434008	35.827788301933
224862.65508353	35.405478667886
227490.40915703	34.989162226139
230148.87127080	34.576950452028
232838.40028026	34.169617809826
235559.35923441	33.767369394726
238312.11542484	33.370064658209
241097.04043534	32.976947144136
243914.51019205	32.588341297791
246764.90501418	32.205424108754
249648.60966538	31.826085169813
252566.01340566	31.451870921007
255517.51004393	31.081567977912
258503.49799119	30.716045757821
261524.38031425	30.354140274603
264580.56479020	29.996539842506
267672.46396144	29.644270566202
270800.49519132	29.294876721925
273965.08072056	28.950151403497
277166.64772416	28.608858043119
280405.62836914	28.272687154366
283682.45987281	27.939807257105
286997.58456184	27.611382304914
290351.44993195	27.285028440575
293744.50870829	26.964446766876
297177.21890660	26.646311284379
300650.04389500	26.332612564171
304163.45245654	26.022573266088
307717.91885249	25.715945440968
311313.92288638	25.411770748941
314951.94996872	25.113302463285
318632.49118254	24.816615711469
322356.04334971	24.523662271885
326123.10909797	24.234345192049
329934.19692877	23.948548030905
333789.82128597	23.665347349584
337690.50262520	23.385843856193
341636.76748418	23.109221454977
345629.14855376	22.834580484433
349668.18474985	22.566536049546
353754.42128613	22.297714181925
357888.40974768	22.032816422387
362070.70816545	21.774611040986
366301.88109152	21.513889199973
370582.49967538	21.259609007183
374913.14174098	21.006848851520
379294.39186475	20.760441344973
383726.84145450	20.513872890997
388211.08882926	20.272474522124
392747.73930004	20.032039497390
397337.40525154	19.800390499679
401980.70622481	19.570047143771
406678.26900087	19.347017411261
411430.72768535	19.122986362432
416238.72379406	18.902410017222
421102.90633957	18.684462469023
426023.93191887	18.465855171353
431002.46480192	18.248787321469
436039.17702142	18.033189917985
441134.74846344	17.819318369128
446289.86695923	17.607789268278
451505.22837807	17.397942459166
456781.53672119	17.190252224319
462119.50421682	16.985233845563
467519.85141629	16.782577639373
472983.30729135	16.582190203004
478510.60933253	16.384042776166
484102.50364871	16.188258873722
489759.74506782	15.994682364052
495483.09723876	15.803364560303
501273.33273443	15.614264645583
507131.23315608	15.427312694398
513057.58923875	15.242520433083
519053.20095808	15.059815904304
525118.87763823	14.879236507473
531255.43806117	14.700697095620
537463.71057717	14.524198303289
543744.53321665	14.349724784370
550098.75380330	14.177207672143
556527.23006848	14.006626231607
563030.82976705	13.838003840059
569610.43079450	13.671270482051
576266.92130542	13.506423064234
583001.19983342	13.343407507281
589814.17541242	13.182258650493
596706.76769934	13.022929365788
603679.90709823	12.865297100898
610734.53488590	12.709456612505
617871.60333897	12.555396324764
625092.07586237	12.403004456813
632396.92711944	12.252373700991
639787.14316347	12.103381971905
647263.72157081	11.956063708491
654827.67157554	11.810349646568
662480.01420566	11.666218458974
670221.78242097	11.523644112820
678054.02125247	11.382782989512
685977.78794345	11.243441021610
693994.15209215	11.105498847844
702104.19579621	10.969259956776
710309.01379872	10.834343965706
718609.71363593	10.700967593887
727007.41578686	10.569073166230
735503.25382445	10.438576452308
744098.37456865	10.309500969918
752793.93824118	10.181817338826
761591.11862214	10.055597856490
770491.10320852	9.9307822486152
779495.09337440	9.8072160085105
788604.30453319	9.6849637930783
797819.96630166	9.5641187253490
807143.32266595	9.4444676812853
816575.63214944	9.3262505623051
826118.16798269	9.2092334192963
835772.21827529	9.0933447123568
845539.08618970	8.9787090412193
855420.09011721	8.8653135658188
865416.56385589	8.7533806387168
875529.85679062	8.6422828114026
885761.33407523	8.5325676645888
896112.37681683	8.4238677331770
906584.38226217	8.3164527025187
917178.76398629	8.2100579952688
927896.95208333	8.1048512054996
938740.39335957	8.0006958896129
949710.55152872	7.8976907054821
960808.90740952	7.7956661860021
972036.95912560	7.6946971233235
983396.22230774	7.5949643859211
994888.23029842	7.4960160120480
1006514.5343588	7.3982319383308
1018276.7038783	7.3014195916749
1030176.3265861	7.2055613145161
1042215.0087656	7.1107327915047
1054394.3754716	7.0168644074863
1066716.0707490	6.9241062532720
1079181.7578554	6.8319760932033
1091793.1194849	6.7408730997788
1104551.8579961	6.6506245725894
1117459.6956410	6.5615169362583
1130518.3747983	6.4731842633779
1143729.6582079	6.3857430924499
1157095.3292092	6.2991225884500
1170617.1919819	6.2133609258627
1184297.0717894	6.1282934645931
1198136.8152250	6.0444131029503
1212138.2904617	5.9610592377649
1226303.3875038	5.8785823718662
1240634.0184423	5.7968444843159
1255132.1177130	5.7160172709424
1269799.6423576	5.6357421557972
1284638.5722879	5.5565587732869
1299650.9105530	5.4779061524915
1314838.6836096	5.4000428386401
1330203.9415959	5.3229156614381
1345748.7586079	5.2462722014006
1361475.2329796	5.1706370963296
1377385.4875663	5.0956324369323
1393481.6700310	5.0212775924126
1409765.9531344	4.9476896468903
1426240.5350282	4.8748125002777
1442907.6395516	4.8023705901527
1459769.5165320	4.7308754920595
1476828.4420882	4.6597557240480
1494086.7189377	4.5895542227463
1511546.6767078	4.5197075269636
1529210.6722500	4.4506026941792
1547081.0899578	4.3821732113400
1565160.3420890	4.3140652049175
1583450.8690913	4.2466151417427
1601955.1399311	4.1799138722835
1620675.6524277	4.1137562163189
1639614.9335897	4.0481423825322
1658775.5399568	3.9830657756064
1678160.0579440	3.9185654562634
1697771.1041918	3.8546287809828
1717611.3259184	3.7910525910734
1737683.4012778	3.7279499069483
1757990.0397210	3.6655816960032
1778533.9823615	3.6037013365161
1799318.0023459	3.5422493884988
1820344.9052277	3.4811451744143
1841617.5293461	3.4206957411090
1863138.7462096	3.3607514588811
1884911.4608830	3.3013121231966
1906938.6123798	3.2419965463580
1929223.1740592	3.1835725633317
1951768.1540267	3.1252757709343
1974576.5955412	3.0674318267087
1997651.5774248	3.0101553995179
2020996.2144791	2.9530967653031
2044613.6579053	2.8965157233205
2068507.0957298	2.8404345226092
2092679.7532341	2.7846311252558
2117134.8933908	2.7291383642514
2141875.8173036	2.6741891134157
2166905.8646529	2.6196602099772
2192228.4141470	2.5652117640133
2217846.8839776	2.5114282132653
2243764.7322819	2.4578617267277
2269985.4576088	2.4043946147102
2296512.5993913	2.3515777321556
2323349.7384246	2.2990275848052
2350500.4973491	2.2467187717459
2377968.5411395	2.1946625292305
2405757.5775995	2.1430777906874
2433871.3578625	2.0915239474400
2462313.6768977	2.0406427727642
2491088.3740224	1.9897010605779
2520199.3334204	1.9390252725682
2549650.4846662	1.8887631808569
2579445.8032556	1.8387206828048
2609589.3111419	1.7891618725962
2640085.0772795	1.7394428915794
2670937.2181724	1.6902136682041
2702149.8984304	1.6410606528220
2733727.3313312	1.5920790535358
2765673.7793888	1.5435746820382
2797993.5549293	1.4948448363639
2830691.0206727	1.4467844645113
2863770.5903221	1.3985010517675
2897236.7291590	1.3508411319522
2931093.9546467	1.3031101009013
2965346.8370395	1.2557188398322
3000000.0000000	1.2083691076777
3035058.1212231	1.1609358704590
3070525.9330675	1.1138419030049
3106408.2231943	1.0671191793884
3142709.8352134	1.0203631908785
3179435.6693374	0.97355264950331
3216590.6830430	0.92702686701232
3254179.8917402	0.88086429368718
3292208.3694490	0.83438003107526
3330681.2494850	0.78802861205513
3369603.7251517	0.74219841811634
3408981.0504418	0.69607861497602
3448818.5407464	0.65023246878902
3489121.5735725	0.60436997598074
3529895.5892687	0.55848525355067
3571146.0917599	0.51289428759461
3612878.6492900	0.46759920858788
3655098.8951738	0.42174236224161
3697812.5285570	0.37645354008063
3741025.3151859	0.33120262587463
3784743.0881854	0.28609687477366
3828971.7488468	0.24109802378742
3873717.2674238	0.19623219636976
3918985.6839390	0.15210537014036
3964783.1089987	0.10920457211293
4011115.7246183	0.069160735166824
4057989.7850562	0.043526921349389
4105411.6176585	0.056270484422415
4153387.6237128	0.092925849130060
4201924.2793124	0.13519780978792
4251028.1362306	0.17920412732794
4300705.8228049	0.22378947625322
4350964.0448319	0.26923898020245
4401809.5864723	0.31523573447222
4453249.3111669	0.36088933225814
4505290.1625628	0.40677684012334
4557939.1654510	0.45297935829035
4611203.4267144	0.49933121503619
4665090.1362872	0.54598584000901
4719606.5681255	0.59269842815968
4774760.0811891	0.63932661542592
4830558.1204350	0.68616417418244
4887008.2178222	0.73369734635354
4944117.9933286	0.78065323739442
5001895.1559791	0.82839537036436
5060347.5048870	0.87615094670358
5119482.9303062	0.92397139486341
5179309.4146964	0.97261055117667
5239835.0338006	1.0207146210880
5301067.9577353	1.0695083185370
5363016.4520935	1.1184467596917
5425688.8790599	1.1678326777793
5489093.6985403	1.2172877044581
5553239.4693032	1.2670992866486
5618134.8501352	1.3170897794729
5683788.6010098	1.3675744063448
5750209.5842701	1.4184978386759
5817406.7658248	1.4693436490595
5885389.2163583	1.5216590161311
5954166.1125558	1.5725752544958
6023746.7383414	1.6256726692567
6094140.4861315	1.6780396763169
6165356.8581027	1.7311779358413
6237405.4674745	1.7855620054478
6310296.0398067	1.8401936207762
6384038.4143125	1.8959578932409
6458642.5451866	1.9516767390951
6534118.5029486	2.0081195228010
6610476.4758029	2.0657894055857
6687726.7710134	2.1240288137733
6765879.8162952	2.1824325824809
6844946.1612221	2.2423545486733
6924936.4786508	2.3042254761050
7005861.5661612	2.3657920580061
7087732.3475142	2.4308005155468
7170559.8741263	2.4954959771671
7254355.3265613	2.5629348816344
7339130.0160394	2.6320301767625
7424895.3859644	2.7029884060340
7511663.0134678	2.7770553172722
7599444.6109723	2.8544915220371
7688252.0277723	2.9355469961591
7778097.2516336	3.0204358821313
7868992.4104113	3.1092393390964
7960949.7736874	3.2057464352422
8053981.7544265	3.3101512261730
8148100.9106517	3.4241952486453
8243319.9471397	3.5499411066474
8339651.7171357	3.6940630252073
8437109.2240885	3.8560937560432
8535705.6234055	4.0441876516340
8635454.2242290	4.2520694249642
8736368.4912323	4.4202451739126
8838462.0464375	4.3468657904846
8941748.6710542	3.7479741661776
9046242.3073398	2.8960332996718
9151957.0604814	2.5769463905869
9258907.2004998	2.6807170614725
9367107.1641762	2.9089132977987
9476571.5570001	3.1633793047259
9587315.1551418	3.4266946751035
9699352.9074463	3.6973410958740
9812699.9374514	3.8858219377276
9927371.5454293	3.6148604361981
10043383.210452	3.1400357980652
10160750.592479	3.0966363353995
10279489.534475	3.2260509939596
10399616.064546	3.3754193349722
10521146.398101	3.5152422632380
10644096.940045	3.6410695481529
10768484.286990	3.7562606304176
10894325.229497	3.8671220450189
11021636.754344	3.9726109820760
11150436.046815	4.0731829003851
11280740.493021	4.1709215378017
11412567.682252	4.2664150419160
11545935.409342	4.3597055791850
11680861.677081	4.4520072126685
11817364.698636	4.5430282461057
